# WAVELENGTH(micron) TOTALBACKGROUND(MJy/sr)
4.000000000000000222e-01 1.016597178683383562e-01
4.100000000000000311e-01 1.083521719659648885e-01
4.200000000000000400e-01 1.150446260635914209e-01
4.299999999999999933e-01 1.217370801612178977e-01
4.400000000000000022e-01 1.284295342588444300e-01
4.500000000000000111e-01 1.351219883564709623e-01
4.600000000000000200e-01 1.418144424540974391e-01
4.699999999999999734e-01 1.485068965517239714e-01
4.799999999999999822e-01 1.551993506493504482e-01
4.899999999999999911e-01 1.618918047469769805e-01
5.000000000000000000e-01 1.685827586206896656e-01
5.100000000000000089e-01 1.752798029556650317e-01
5.200000000000000178e-01 1.819714285714285895e-01
5.300000000000000266e-01 1.886576354679802836e-01
5.400000000000000355e-01 1.953522167487684869e-01
5.500000000000000444e-01 2.020467980295566623e-01
5.600000000000000533e-01 2.087399014778324735e-01
5.700000000000000622e-01 2.154325123152709132e-01
5.799999999999999600e-01 2.221246305418718980e-01
5.899999999999999689e-01 2.288147783251231471e-01
5.999999999999999778e-01 2.355093596059113226e-01
6.099999999999999867e-01 2.381748768472906619e-01
6.199999999999999956e-01 2.408394088669950639e-01
6.300000000000000044e-01 2.435059113300492850e-01
6.400000000000000133e-01 2.461684729064039512e-01
6.500000000000000222e-01 2.488339901477832627e-01
6.600000000000000311e-01 2.515039408866995285e-01
6.700000000000000400e-01 2.541665024630542224e-01
6.799999999999999378e-01 2.568349753694581517e-01
6.899999999999999467e-01 2.594945812807881724e-01
6.999999999999999556e-01 2.621620689655171921e-01
7.099999999999999645e-01 2.631724137931034657e-01
7.199999999999999734e-01 2.641866995073891000e-01
7.299999999999999822e-01 2.651940886699507560e-01
7.399999999999999911e-01 2.662068965517241370e-01
7.500000000000000000e-01 2.672172413793103551e-01
7.600000000000000089e-01 2.682325123152709545e-01
7.700000000000000178e-01 2.692413793103448083e-01
7.800000000000000266e-01 2.702527093596059360e-01
7.900000000000000355e-01 2.712620689655171891e-01
8.000000000000000444e-01 2.722724137931034072e-01
8.100000000000000533e-01 2.720098522167487265e-01
8.200000000000000622e-01 2.717482758620689554e-01
8.300000000000000711e-01 2.714881773399014930e-01
8.400000000000000799e-01 2.712192118226600668e-01
8.500000000000000888e-01 2.709596059113300592e-01
8.599999999999999867e-01 2.707009852216748502e-01
8.699999999999999956e-01 2.704330049261083890e-01
8.800000000000000044e-01 2.701709359605911076e-01
8.900000000000000133e-01 2.699064039408866633e-01
9.000000000000000222e-01 2.696389162561576569e-01
9.100000000000000311e-01 2.713211822660098749e-01
9.199999999999999289e-01 2.730034482758620928e-01
9.299999999999999378e-01 2.746798029556650755e-01
9.399999999999999467e-01 2.763522167487684755e-01
9.499999999999999556e-01 2.780344827586206935e-01
9.599999999999999645e-01 2.797137931034482938e-01
9.699999999999999734e-01 2.813916256157635853e-01
9.799999999999999822e-01 2.830748768472906574e-01
9.899999999999999911e-01 2.847458128078818040e-01
1.000000000000000000e+00 2.864256157635468036e-01
1.010000000000000009e+00 2.848650246305419187e-01
1.020000000000000018e+00 2.833004926108374510e-01
1.030000000000000027e+00 2.817418719211822742e-01
1.040000000000000036e+00 2.801763546798029525e-01
1.050000000000000044e+00 2.786133004926107937e-01
1.060000000000000053e+00 2.770571428571428907e-01
1.070000000000000062e+00 2.754911330049261142e-01
1.080000000000000071e+00 2.739285714285714102e-01
1.089999999999999858e+00 2.723679802955665252e-01
1.100000000000000089e+00 2.708014778325123495e-01
1.109999999999999876e+00 2.691004926108374051e-01
1.120000000000000107e+00 2.673896551724138093e-01
1.129999999999999893e+00 2.656802955665024668e-01
1.140000000000000124e+00 2.639802955665024875e-01
1.149999999999999911e+00 2.622699507389162354e-01
1.160000000000000142e+00 2.605610837438423477e-01
1.169999999999999929e+00 2.588546798029556784e-01
1.180000000000000160e+00 2.571532019704433347e-01
1.189999999999999947e+00 2.554418719211822286e-01
1.200000000000000178e+00 2.537325123152709416e-01
1.209999999999999964e+00 2.524206896551723922e-01
1.219999999999999973e+00 2.511073891625615895e-01
1.229999999999999982e+00 2.497876847290640134e-01
1.239999999999999991e+00 2.484763546798029465e-01
1.250000000000000000e+00 2.471615763546798072e-01
1.260000000000000009e+00 2.458477832512315220e-01
1.270000000000000018e+00 2.445320197044335009e-01
1.280000000000000027e+00 2.432147783251231432e-01
1.290000000000000036e+00 2.419004926108374587e-01
1.300000000000000044e+00 2.405876847290640552e-01
1.310000000000000053e+00 2.396620689655172276e-01
1.320000000000000062e+00 2.387359605911330285e-01
1.330000000000000071e+00 2.378118226600985374e-01
1.339999999999999858e+00 2.368871921182265916e-01
1.350000000000000089e+00 2.359630541871921561e-01
1.359999999999999876e+00 2.350359605911329919e-01
1.370000000000000107e+00 2.341128078817733826e-01
1.379999999999999893e+00 2.331906403940886552e-01
1.390000000000000124e+00 2.322630541871921195e-01
1.399999999999999911e+00 2.313384236453201737e-01
1.410000000000000142e+00 2.304103448275862387e-01
1.419999999999999929e+00 2.294842364532019841e-01
1.430000000000000160e+00 2.285571428571428754e-01
1.439999999999999947e+00 2.276261083743842673e-01
1.450000000000000178e+00 2.266985221674877038e-01
1.459999999999999964e+00 2.257689655172413767e-01
1.469999999999999973e+00 2.248448275862069135e-01
1.479999999999999982e+00 2.239142857142857046e-01
1.489999999999999991e+00 2.229891625615763318e-01
1.500000000000000000e+00 2.220605911330049143e-01
1.510000000000000009e+00 2.211472906403941230e-01
1.520000000000000018e+00 2.202413793103448203e-01
1.530000000000000027e+00 2.193354679802955731e-01
1.540000000000000036e+00 2.184325123152708881e-01
1.550000000000000044e+00 2.175261083743842416e-01
1.560000000000000053e+00 2.166177339901477761e-01
1.570000000000000062e+00 2.157093596059113383e-01
1.580000000000000071e+00 2.148019704433497268e-01
1.590000000000000080e+00 2.138990147783251250e-01
1.600000000000000089e+00 2.129940886699507319e-01
1.610000000000000098e+00 2.121197044334975357e-01
1.620000000000000107e+00 2.112472906403941031e-01
1.630000000000000115e+00 2.103674876847290709e-01
1.640000000000000124e+00 2.094990147783250822e-01
1.650000000000000133e+00 2.086231527093595772e-01
1.659999999999999920e+00 2.077541871921182171e-01
1.669999999999999929e+00 2.068743842364532126e-01
1.679999999999999938e+00 2.060034482758621166e-01
1.689999999999999947e+00 2.051285714285714101e-01
1.699999999999999956e+00 2.042605911330049318e-01
1.709999999999999964e+00 2.030753694581280688e-01
1.719999999999999973e+00 2.018916256157635980e-01
1.729999999999999982e+00 2.007118226600985433e-01
1.739999999999999991e+00 1.995300492610837528e-01
1.750000000000000000e+00 1.983443349753694906e-01
1.760000000000000009e+00 1.971630541871920994e-01
1.770000000000000018e+00 1.959852216748768639e-01
1.780000000000000027e+00 1.948034482758621011e-01
1.790000000000000036e+00 1.936221674876847376e-01
1.800000000000000044e+00 1.924359605911329929e-01
1.810000000000000053e+00 1.916571428571428037e-01
1.820000000000000062e+00 1.908758620689655072e-01
1.830000000000000071e+00 1.900970443349753458e-01
1.840000000000000080e+00 1.893197044334975210e-01
1.850000000000000089e+00 1.885374384236453149e-01
1.860000000000000098e+00 1.877556650246305636e-01
1.870000000000000107e+00 1.869778325123152563e-01
1.880000000000000115e+00 1.861970443349753868e-01
1.890000000000000124e+00 1.854167487684729165e-01
1.900000000000000133e+00 1.846354679802955367e-01
1.909999999999999920e+00 1.838995073891625809e-01
1.919999999999999929e+00 1.831615763546797782e-01
1.929999999999999938e+00 1.824290640394088947e-01
1.939999999999999947e+00 1.816876847290640196e-01
1.949999999999999956e+00 1.809492610837438176e-01
1.959999999999999964e+00 1.802133004926108895e-01
1.969999999999999973e+00 1.794758620689655138e-01
1.979999999999999982e+00 1.787433497536945748e-01
1.989999999999999991e+00 1.780009852216748734e-01
2.000000000000000000e+00 1.772650246305418620e-01
2.009999999999999787e+00 1.766581280788177000e-01
2.020000000000000018e+00 1.760453201970443304e-01
2.030000000000000249e+00 1.754374384236453144e-01
2.040000000000000036e+00 1.748211822660098724e-01
2.049999999999999822e+00 1.742162561576354463e-01
2.060000000000000053e+00 1.735999999999999766e-01
2.070000000000000284e+00 1.729906403940886794e-01
2.080000000000000071e+00 1.723793103448275910e-01
2.089999999999999858e+00 1.717758620689655291e-01
2.100000000000000089e+00 1.711566502463054140e-01
2.110000000000000320e+00 1.705906403940886940e-01
2.120000000000000107e+00 1.700246305418719184e-01
2.129999999999999893e+00 1.694536945812808171e-01
2.140000000000000124e+00 1.688842364532019413e-01
2.150000000000000355e+00 1.683157635467980306e-01
2.160000000000000142e+00 1.677453201970443564e-01
2.169999999999999929e+00 1.671793103448276085e-01
2.179999999999999716e+00 1.666108374384236701e-01
2.189999999999999947e+00 1.660399014778325133e-01
2.200000000000000178e+00 1.654704433497536931e-01
2.209999999999999964e+00 1.648256157635468178e-01
2.219999999999999751e+00 1.641852216748768412e-01
2.229999999999999982e+00 1.635374384236452927e-01
2.240000000000000213e+00 1.628950738916256358e-01
2.250000000000000000e+00 1.622517241379310415e-01
2.259999999999999787e+00 1.616054187192118297e-01
2.270000000000000018e+00 1.609615763546797806e-01
2.280000000000000249e+00 1.603182266009852419e-01
2.290000000000000036e+00 1.596729064039409118e-01
2.299999999999999822e+00 1.590285714285714358e-01
2.310000000000000053e+00 1.584399014778325177e-01
2.320000000000000284e+00 1.578532019704433631e-01
2.330000000000000071e+00 1.572630541871921084e-01
2.339999999999999858e+00 1.566733990147783362e-01
2.350000000000000089e+00 1.560866995073891539e-01
2.360000000000000320e+00 1.554970443349753539e-01
2.370000000000000107e+00 1.549098522167487724e-01
2.379999999999999893e+00 1.543167487684729278e-01
2.390000000000000124e+00 1.537315270935960820e-01
2.400000000000000355e+00 1.531379310344827549e-01
2.410000000000000142e+00 1.525931034482758408e-01
2.419999999999999929e+00 1.520522167487684539e-01
2.429999999999999716e+00 1.515078817733990224e-01
2.439999999999999947e+00 1.509620689655172265e-01
2.450000000000000178e+00 1.504142857142857226e-01
2.459999999999999964e+00 1.498714285714285721e-01
2.469999999999999751e+00 1.493251231527093770e-01
2.479999999999999982e+00 1.487822660098522265e-01
2.490000000000000213e+00 1.482334975369458130e-01
2.500000000000000000e+00 1.476931034482758531e-01
2.510000000000000231e+00 1.471955665024630711e-01
2.520000000000000018e+00 1.466950738916256158e-01
2.530000000000000249e+00 1.461985221674876878e-01
2.540000000000000036e+00 1.456970443349753785e-01
2.549999999999999822e+00 1.452039408866995229e-01
2.560000000000000053e+00 1.447019704433497589e-01
2.569999999999999840e+00 1.442034482758620673e-01
2.580000000000000071e+00 1.437044334975369486e-01
2.589999999999999858e+00 1.432068965517241388e-01
2.600000000000000089e+00 1.427098522167487560e-01
2.609999999999999876e+00 1.422512315270935690e-01
2.620000000000000107e+00 1.417955665024630552e-01
2.629999999999999893e+00 1.413354679802955594e-01
2.640000000000000124e+00 1.408827586206896632e-01
2.649999999999999911e+00 1.404221674876847126e-01
2.660000000000000142e+00 1.399674876847290528e-01
2.669999999999999929e+00 1.395083743842364388e-01
2.680000000000000160e+00 1.390527093596058972e-01
2.689999999999999947e+00 1.385931034482758839e-01
2.700000000000000178e+00 1.381354679802955510e-01
2.709999999999999964e+00 1.377197044334975418e-01
2.720000000000000195e+00 1.372995073891625506e-01
2.729999999999999982e+00 1.368822660098522326e-01
2.740000000000000213e+00 1.364620689655172414e-01
2.750000000000000000e+00 1.360472906403940863e-01
2.760000000000000231e+00 1.356261083743842411e-01
2.770000000000000018e+00 1.352118226600985129e-01
2.780000000000000249e+00 1.347906403940886955e-01
2.790000000000000036e+00 1.343738916256157767e-01
2.800000000000000266e+00 1.339566502463054032e-01
2.810000000000000053e+00 1.320852216748768793e-01
2.819999999999999840e+00 1.302073891625615820e-01
2.830000000000000071e+00 1.283423645320196926e-01
2.839999999999999858e+00 1.264650246305418779e-01
2.850000000000000089e+00 1.245955665024630343e-01
2.859999999999999876e+00 1.227256157635467915e-01
2.870000000000000107e+00 1.208507389162561535e-01
2.879999999999999893e+00 1.189812807881773515e-01
2.890000000000000124e+00 1.171133004926108445e-01
2.899999999999999911e+00 1.152389162561576474e-01
2.910000000000000142e+00 1.148817733990147721e-01
2.919999999999999929e+00 1.145266009852216743e-01
2.930000000000000160e+00 1.141709359605911495e-01
2.939999999999999947e+00 1.138177339901477736e-01
2.950000000000000178e+00 1.134635467980295853e-01
2.959999999999999964e+00 1.131049261083743873e-01
2.970000000000000195e+00 1.127541871921182159e-01
2.979999999999999982e+00 1.124004926108374547e-01
2.990000000000000213e+00 1.120408866995073888e-01
3.000000000000000000e+00 1.116862068965517457e-01
3.010000000000000231e+00 1.113029556650246416e-01
3.020000000000000018e+00 1.109226600985221550e-01
3.030000000000000249e+00 1.105403940886699604e-01
3.040000000000000036e+00 1.101546798029556656e-01
3.050000000000000266e+00 1.097733990147783251e-01
3.060000000000000053e+00 1.093881773399014573e-01
3.069999999999999840e+00 1.090068965517241306e-01
3.080000000000000071e+00 1.086236453201970542e-01
3.089999999999999858e+00 1.082403940886699639e-01
3.100000000000000089e+00 1.078551724137931239e-01
3.109999999999999876e+00 1.077300492610837462e-01
3.120000000000000107e+00 1.076118226600985134e-01
3.129999999999999893e+00 1.074901477832512220e-01
3.140000000000000124e+00 1.073684729064039445e-01
3.149999999999999911e+00 1.072463054187192122e-01
3.160000000000000142e+00 1.071270935960590975e-01
3.169999999999999929e+00 1.070009852216748797e-01
3.180000000000000160e+00 1.068807881773398971e-01
3.189999999999999947e+00 1.067596059113300466e-01
3.200000000000000178e+00 1.066330049261083740e-01
3.209999999999999964e+00 1.073054187192118286e-01
3.220000000000000195e+00 1.079729064039408881e-01
3.229999999999999982e+00 1.086477832512315334e-01
3.240000000000000213e+00 1.093142857142857111e-01
3.250000000000000000e+00 1.099881773399014606e-01
3.260000000000000231e+00 1.106571428571428567e-01
3.270000000000000018e+00 1.113270935960591068e-01
3.280000000000000249e+00 1.119960591133004890e-01
3.290000000000000036e+00 1.126674876847290757e-01
3.300000000000000266e+00 1.133399014778325303e-01
3.310000000000000053e+00 1.118206896551724311e-01
3.319999999999999840e+00 1.103064039408867131e-01
3.330000000000000071e+00 1.087911330049260994e-01
3.339999999999999858e+00 1.072773399014778223e-01
3.350000000000000089e+00 1.057581280788177230e-01
3.359999999999999876e+00 1.042433497536945780e-01
3.370000000000000107e+00 1.027295566502463148e-01
3.379999999999999893e+00 1.012123152709359514e-01
3.390000000000000124e+00 9.969507389162562960e-02
3.399999999999999911e+00 9.817980295566502980e-02
3.410000000000000142e+00 9.954285714285714126e-02
3.419999999999999929e+00 1.009029556650246351e-01
3.430000000000000160e+00 1.022655172413793195e-01
3.439999999999999947e+00 1.036290640394088719e-01
3.450000000000000178e+00 1.049866995073891612e-01
3.459999999999999964e+00 1.063487684729064048e-01
3.470000000000000195e+00 1.077103448275862213e-01
3.479999999999999982e+00 1.090738916256157598e-01
3.490000000000000213e+00 1.104364532019704304e-01
3.500000000000000000e+00 1.117950738916256292e-01
3.510000000000000231e+00 1.123123152709359501e-01
3.520000000000000018e+00 1.128280788177339899e-01
3.530000000000000249e+00 1.133374384236453258e-01
3.540000000000000036e+00 1.138532019704433518e-01
3.550000000000000266e+00 1.143665024630541871e-01
3.560000000000000053e+00 1.148842364532019766e-01
3.570000000000000284e+00 1.153975369458127981e-01
3.580000000000000071e+00 1.159118226600985152e-01
3.589999999999999858e+00 1.164246305418719235e-01
3.600000000000000089e+00 1.169418719211822860e-01
3.609999999999999876e+00 1.174561576354679893e-01
3.620000000000000107e+00 1.179714285714285743e-01
3.629999999999999893e+00 1.184847290640393958e-01
3.640000000000000124e+00 1.189999999999999808e-01
3.649999999999999911e+00 1.195147783251231666e-01
3.660000000000000142e+00 1.200275862068965610e-01
3.669999999999999929e+00 1.205428571428571460e-01
3.680000000000000160e+00 1.210605911330049217e-01
3.689999999999999947e+00 1.215709359605911394e-01
3.700000000000000178e+00 1.220891625615763282e-01
3.709999999999999964e+00 1.232197044334975428e-01
3.720000000000000195e+00 1.243467980295566433e-01
3.729999999999999982e+00 1.254763546798029483e-01
3.740000000000000213e+00 1.266059113300492533e-01
3.750000000000000000e+00 1.277354679802955861e-01
3.760000000000000231e+00 1.288660098522167452e-01
3.770000000000000018e+00 1.299940886699507414e-01
3.780000000000000249e+00 1.311305418719211635e-01
3.790000000000000036e+00 1.322596059113300415e-01
3.800000000000000266e+00 1.333901477832512283e-01
3.810000000000000053e+00 1.345172413793103150e-01
3.820000000000000284e+00 1.356502463054187202e-01
3.830000000000000071e+00 1.367783251231526886e-01
3.839999999999999858e+00 1.379073891625615944e-01
3.850000000000000089e+00 1.390359605911329899e-01
3.859999999999999876e+00 1.401719211822660127e-01
3.870000000000000107e+00 1.412999999999999812e-01
3.879999999999999893e+00 1.424315270935960498e-01
3.890000000000000124e+00 1.435605911330049278e-01
3.899999999999999911e+00 1.446881773399014692e-01
3.910000000000000142e+00 1.458201970443349926e-01
3.919999999999999929e+00 1.469502463054187247e-01
3.930000000000000160e+00 1.480827586206896473e-01
3.939999999999999947e+00 1.492103448275862165e-01
3.950000000000000178e+00 1.503438423645320210e-01
3.959999999999999964e+00 1.514699507389162536e-01
3.970000000000000195e+00 1.526014778325123500e-01
3.979999999999999982e+00 1.537315270935960543e-01
3.990000000000000213e+00 1.548645320197044595e-01
4.000000000000000000e+00 1.559931034482758549e-01
4.009999999999999787e+00 1.576955665024630526e-01
4.019999999999999574e+00 1.593916256157635603e-01
4.030000000000000249e+00 1.610940886699507579e-01
4.040000000000000036e+00 1.627921182266010014e-01
4.050000000000000711e+00 1.644886699507389360e-01
4.060000000000000497e+00 1.661896551724138249e-01
4.070000000000000284e+00 1.678926108374384218e-01
4.080000000000000071e+00 1.695940886699507377e-01
4.089999999999999858e+00 1.712871921182265722e-01
4.099999999999999645e+00 1.729871921182266070e-01
4.109999999999999432e+00 1.746876847290640133e-01
4.120000000000000107e+00 1.763847290640394028e-01
4.129999999999999893e+00 1.780857142857142639e-01
4.140000000000000568e+00 1.797832512315270803e-01
4.150000000000000355e+00 1.814812807881773238e-01
4.160000000000000142e+00 1.831827586206896397e-01
4.169999999999999929e+00 1.848886699507388820e-01
4.179999999999999716e+00 1.865866995073891532e-01
4.189999999999999503e+00 1.882827586206896608e-01
4.200000000000000178e+00 1.899822660098522131e-01
4.209999999999999964e+00 1.916822660098522479e-01
4.220000000000000639e+00 1.933857142857142997e-01
4.230000000000000426e+00 1.950793103448275889e-01
4.240000000000000213e+00 1.967812807881773596e-01
4.250000000000000000e+00 1.984812807881773666e-01
4.259999999999999787e+00 2.015788177339901677e-01
4.269999999999999574e+00 2.046753694581280869e-01
4.280000000000000249e+00 2.077699507389162703e-01
4.290000000000000036e+00 2.108689655172413524e-01
4.300000000000000711e+00 2.139586206896551546e-01
4.310000000000000497e+00 2.170536945812808205e-01
4.320000000000000284e+00 2.201497536945812572e-01
4.330000000000000071e+00 2.232477832512315130e-01
4.339999999999999858e+00 2.263438423645320330e-01
4.349999999999999645e+00 2.294428571428571151e-01
4.359999999999999432e+00 2.325339901477832538e-01
4.370000000000000107e+00 2.356320197044335096e-01
4.379999999999999893e+00 2.387339901477832649e-01
